*TYPE		=  Raw
*CLASS		=  ASCII CLASS
*SAMPLE		=  
*COMMENT	=  
*FNAME		=  
*DATE		=  30-Nov-25 17:44

*GROUP_COUNT	=  1
*GONIO		=  Standard, 150
*ATTACHMENT	=  
*ASC		=  0, 0, 0.000000, 0.000000
*I_MONOCHRO	=  Manual, 0.000000
*FILTER		=  None
*SLIT_NAME	=  0, IncidentSlitBox
*SLIT_NAME	=  1, ReceivingSlitBox1
*SLIT_NAME	=  2, ReceivingSlitBox2
*COUNTER	=  DteX100, 0
*POS_FORMAT	=  0
*SCAN_AXIS	=  2theta/theta
*MEAS_MODE	=  Continuous Scanning
*TARGET		=  29
*XRAY_CHAR	=  K-ALPHA
*WAVE_LENGTH1	=  1.54059
*WAVE_LENGTH2	=  1.54441
*THICKNESS	=  0, 0.000000
*MU		=  0, 0.000000
*SCAN_MODE	=  2theta/theta
*SPEED_DIM	=  sec./step
*XUNIT		=  deg.
*YUNIT		=  counts
*SCALE_MODE	=  1
*REP_COUNT	=  0
*SE_COUNT	=  0
*STD_MATERIAL	=  Unknown, Unknown, 0.000000, 0.000000, 0.000000, 0.000000, 0.000000, 0.000000
*LATT_CONS	=  0, Unknown, Unknown, 0.000000, 0.000000, 0.000000, 0.000000, 0.000000, 0.000000
*SEC_COUNT	=  1
*TSPEC_SIZE	=  0
*EXTRA_SIZE	=  0
*MEMO		=  

*BEGIN
*GROUP		=  0
*START		=  5
*STOP		=  65
*STEP		=  0.02
*OFFSET		=  0.000000
*SPEED		=  0.06
*SLIT_SPEC	=  0, 1.25deg, 0.000000, 0.000000
*SLIT_SPEC	=  1, 8.0mm, 0.000000, 0.000000
*SLIT_SPEC	=  2, Open, 0.000000, 0.000000
*KV		=  40
*MA		=  15
*LOW		=  0.000000
*HIGH		=  0.000000
*CTEMPER	=  0, 0.000000
*CTEMPER	=  1, 0.000000
*CTEMPER	=  2, 0.000000
*PAREX		=  0, 0.000000
*PAREX		=  1, 0.000000
*PAREX		=  2, 0.000000
*PAREX		=  3, 0.000000
*PAREX		=  4, 0.000000
*PAREX		=  5, 0.000000
*PAREX		=  6, 0.000000
*PAREX		=  7, 0.000000
*PAREX		=  8, 0.000000
*PAREX		=  9, 0.000000
*PAREX		=  10, 0.000000
*PAREX		=  11, 0.000000
*PAREX		=  12, 0.000000
*PAREX		=  13, 0.000000
*PAREX		=  14, 0.000000
*PAREX		=  15, 0.000000
*FULL_SCALE	=  0.000000
*INDEX		=  0, 0, 0
*COUNT		=  3001
542.866, 491.66, 427.052, 382.749
360.814, 338.572, 309.264, 273.965
255.438, 239.279, 215.774, 217.1
225, 225, 214.91, 189.629
179.921, 182.44, 165.767, 164.191
172.441, 160.817, 149.764, 143.53
145.027, 146.767, 149.465, 159.695
162.212, 160.557, 165.458, 164.544
158.216, 153.217, 149.887, 145.664
137.997, 131.778, 132.777, 123.342
123.988, 125.899, 118.782, 113.121
111.108, 112, 122.515, 116.618
103.894, 107.421, 114.314, 110.375
107.207, 107.345, 105.449, 94.5301
99.7693, 112.651, 114, 104.651
95.9007, 101.043, 105.451, 93.4748
84, 81.807, 84.9316, 90.0953
97.5684, 98.6235, 91.1726, 89.0929
98.7387, 104.362, 99.1811, 93.2737
85.5506, 85.9017, 87.8227, 83.824
84.7184, 79.9362, 86.4901, 89.4019
85.712, 102.636, 104.165, 90.6687
88.6233, 87.2962, 86.6212, 92.3206
96, 95.4606, 99.3125, 94.3806
84.8465, 86.2281, 90.613, 85.5522
80.537, 84.7562, 83.71, 78.3923
78.6066, 82.1407, 92.022, 94.1901
98.5451, 96.3934, 86.4, 85.533
90.2606, 101.983, 104.214, 86.1825
77.1864, 89.5521, 85.2731, 75.5897
81.7656, 88.6456, 89.9426, 85.83
87.7514, 87.7797, 86.6357, 83.7327
85.316, 90.4741, 85.2703, 84.6758
81.1789, 78.1457, 84.1432, 93.8049
93.7236, 84.3417, 86.2219, 91
84.7439, 81.0837, 80.918, 84.7206
92.5981, 83.5777, 78.7063, 81.9267
76.3748, 77.657, 84.068, 84.9669
90.7094, 87.7181, 79.5152, 75.8819
77.1431, 78.9169, 87.8081, 95.9224
94.5374, 83.7116, 79.6733, 90.5776
95.5319, 89.8579, 84.5291, 95.1658
95.8602, 80.8843, 81.109, 86.9854
84.4795, 77.9366, 71.9883, 84.6451
90.4267, 87.5396, 83.9374, 80.0273
87.0175, 86.483, 81.4942, 90.5301
89.9795, 78.4996, 78, 88.9872
88.0261, 80.4856, 80.0211, 77.4869
82.9812, 86.9927, 84.5292, 78.5234
80.4531, 80.5516, 74.025, 75.4526
79.4927, 79.5078, 76.0502, 80.3666
90.9434, 87.1395, 88.3215, 92.1104
86.5116, 83.0727, 86.8227, 95.4604
92.6238, 77.8004, 73.3069, 86.2997
87.6756, 84.9009, 83.6537, 79.9647
77.6273, 85.0687, 93.6352, 83.2783
81.7546, 81.2942, 80.6978, 82.2659
78.8636, 81.0466, 88.0941, 92.7201
85.6252, 83.9488, 85.9476, 86.5268
89.7811, 87.3914, 79.5285, 81.8252
79.827, 80.1059, 83.2473, 83.6849
79.1743, 71.7383, 84.4004, 91.2035
85.6726, 84.8595, 79.1074, 77.8822
84.6848, 80.6127, 84.0801, 83.0819
76.3818, 77.54, 76.0813, 75.4587
68.6703, 72.8095, 82.0609, 75.9125
76.0888, 78.6398, 80.274, 77
76.0939, 76.8097, 83.9697, 85.0373
78.099, 82.8483, 89.1016, 88
79.4893, 69, 76.5927, 82.4322
76.664, 72.7767, 73.1081, 77.8867
82.0989, 83.3478, 76.469, 75.5256
76.4797, 73.3181, 81.1418, 76.2971
68.3099, 81.6201, 81.0759, 76.4353
77.4347, 76.6981, 80.6329, 85.8369
79.5445, 81.9, 82.3888, 68.8506
75.8712, 80.0017, 70.139, 70.8645
77.381, 88.7229, 86.15, 85.8486
88.2708, 90, 92.5332, 89.6775
83.9456, 82.959, 75.1612, 74.4187
73.7461, 71.1655, 80.8296, 89.3471
80.8302, 84.0718, 80.7953, 75.7163
81, 78.5312, 75, 79.5102
85.5907, 85.4086, 80.6983, 68.5221
66.8762, 75.2168, 77.8097, 74.1504
70.6305, 73.9868, 75.8229, 81.7965
79.1992, 78.3997, 76.2076, 70.8055
69.3974, 75.5532, 82.8123, 81.3951
81.6056, 77.0638, 69.4285, 68.1763
76.6527, 79.9697, 68.6102, 70.3342
76.7179, 82.55, 81.5195, 71.3686
65.5407, 73.3816, 80.4655, 71.8745
67.3489, 75.2374, 73.6195, 75.658
82.2736, 79.1935, 71.0188, 75.6234
71.9938, 78.2494, 92.1356, 81.0129
77.4904, 82.6026, 81.8061, 75.2212
77.8918, 72.3141, 68.2067, 69.0642
64.3662, 67.5575, 78.1974, 87.1813
80.0078, 70.4652, 66, 64.1976
62.4387, 73.2535, 84.0617, 77.7144
78.2872, 75.5778, 73.7095, 76.7695
78.5877, 76.7045, 71.3231, 64.6093
79.197, 82.4641, 75.3923, 74.8748
69.6928, 72.0367, 70.5528, 70.8776
80.9127, 75.6844, 73.5866, 67
71.7551, 77.2732, 68.9862, 68.0113
74.3711, 81.9939, 82.3417, 84.3306
80.6641, 82.6722, 80.9933, 78.0466
69.6468, 72.343, 66.0856, 63.8423
79.6741, 77.3749, 71.4068, 64.7069
67.1585, 77.6785, 78.2826, 78.7616
74.6378, 77.2721, 79.3657, 78.3163
78.0539, 72.2262, 66.5088, 69.4983
70.86, 86.3109, 80.7993, 71.9463
82.3835, 74.5455, 62.7581, 71.7501
78, 73.1398, 62.6057, 66.7176
69.0863, 64.5023, 72.606, 67
70.5692, 78.407, 71.9746, 60.8841
65.6441, 71.7071, 73.0437, 77.4179
74.2593, 67.9756, 58.964, 56.1841
72.2813, 69.4276, 68.4465, 57.851
62.8274, 72.5363, 73.9441, 65.1993
74.0469, 70.1124, 70.2285, 65.7622
69.9719, 63.9204, 69, 66.0029
61.2583, 71.3529, 75.2696, 74.3878
67.858, 65.4684, 75, 72.6158
68.9035, 75.685, 71.7379, 72.0444
74.4797, 75.0735, 78.4177, 70.4855
68.231, 63.7018, 59.0352, 67.0275
73.2525, 75.006, 74.2419, 63.4991
66.9888, 71.0189, 63.52, 62.4397
71.0422, 62.8063, 58.4277, 65.0328
63.9266, 70, 69.2834, 66.7621
70.7381, 83.6408, 74.5904, 70.7019
72.767, 72.232, 71.614, 67.46
70.1451, 75.3681, 78.4108, 70.2875
60.3249, 58.8962, 64.6767, 72.6676
69.1053, 73.4401, 74.3428, 72.4361
73.3488, 70.3518, 71.0107, 82.214
82.787, 79.6677, 69.7339, 65.42
67.209, 67.792, 66.793, 66.8238
69.7951, 68.1843, 66.2175, 70.5962
67.9956, 64.5996, 68.3919, 73.8022
73.984, 77.0212, 71.6368, 65.6126
64.9634, 69.3833, 71.3813, 73.5688
75.0572, 71.7502, 72.9484, 63.8145
63.7377, 64.0656, 56.1061, 79.544
78.214, 61.5377, 65.9602, 73.7599
69.409, 76, 74.2597, 65.827
65.6877, 68.1456, 63.4905, 61.3376
63, 62.1666, 59.822, 67.1896
58.6541, 62.3249, 62.3859, 55.9243
65.8407, 65, 65, 64.8439
63.5348, 61.154, 62.6117, 64.4814
57.3572, 66.7967, 75.8107, 69.738
72.8278, 67.1636, 73.2781, 67.5669
60.4223, 68.4354, 65.5603, 66.7759
53.8276, 60.2317, 67.4569, 63.1919
60.1378, 76.3855, 88.7139, 65.0446
53.5513, 62.7181, 55.3982, 64.2439
59, 60.4861, 70.2635, 64.27
59.7234, 66.6727, 77.3427, 65.3519
67.8838, 66.6547, 64.456, 67.5484
64.3354, 66.8893, 64.7944, 57.7125
78.7112, 68.8503, 75.7896, 74.6245
79.4851, 73.5738, 62.0076, 70.0034
60.8029, 59.5846, 64.5184, 61.9995
79.3062, 61.8842, 52.9293, 71.1832
63.5378, 68.2033, 59.9126, 58.6549
55.6813, 62.4957, 58.5756, 74.6093
58.758, 55.9204, 55.9412, 67
67.2285, 69.7748, 66.7043, 63.364
67.355, 59.2116, 62.4164, 68.2731
72.0671, 72.934, 71.481, 63.6813
59.626, 69.1229, 71.1207, 72.8816
70.0131, 53.7724, 50.6135, 61.1093
63.107, 65.3141, 71.1024, 72.6496
65.8044, 61.3791, 49.8857, 67.8181
64.8421, 82.3524, 68.2101, 72.3461
57.4369, 67.9229, 65.6633, 57.145
61.7371, 81.4229, 65.0984, 68.0949
70.7562, 63.3225, 73.3524, 51.297
61.7675, 53.1234, 58.1881, 66
66.3178, 80.96, 78.6417, 60.1946
70.9174, 66.0154, 66.8723, 58.1692
70.9526, 66.9146, 58.924, 51.2167
77, 76.8982, 60.0144, 62.9854
59.0345, 72.982, 59.0003, 61.9968
54.018, 60.976, 61, 52.0521
60.9373, 61, 59.0187, 52.0736
52, 71.7423, 76.9297, 58.2898
66.852, 65.0353, 61.0753, 61
58.0636, 59.9552, 49.2593, 67.5294
64.1038, 55.2444, 60.8299, 71.675
63.2766, 52.3513, 48.1325, 67.3135
68.9645, 64.1836, 62.0758, 64.8826
58.2822, 69.5017, 54.6836, 60.6925
63.8646, 55.417, 73.0968, 59.7311
53.2997, 56.7954, 61.7382, 71.4643
65.3834, 69.7201, 74.714, 63.7008
48.8942, 53.6351, 58.6898, 76.7983
60.2248, 72.0805, 58.0702, 63.5233
53.7625, 56.7179, 66.2825, 66.073
62.2968, 62, 58.3065, 61.6886
54.6325, 61.3577, 61.0815, 57.3309
52.4198, 71.2113, 83.0496, 94.0361
84.0662, 82.0901, 92.9044, 74.0357
81.9687, 69.4248, 59.8659, 68.9281
80.8159, 67.5985, 66.8989, 53.5355
60.964, 59.3145, 56.3182, 58.6781
66.1317, 58.9879, 55.333, 57.6633
59.773, 53.803, 57.4202, 65.0625
66, 73.0427, 74, 69.6107
64.6169, 59.6231, 61.6224, 60.2542
55.6418, 60.2224, 69.6916, 76.2075
57.9333, 48.0766, 55.6417, 63.0405
58.8299, 64.023, 60.7041, 68.5793
64.8599, 64, 52.8956, 50.1471
59.3685, 52.4957, 54.3967, 50.7604
50.8467, 45.0821, 54.13, 57.6858
47.0585, 47.5212, 57.2306, 62.3515
55.4704, 53.1646, 53.8341, 56.4986
54.5052, 50.6787, 45.8546, 59.9006
67.1328, 69.6506, 66.7039, 50.3675
43.714, 50.3821, 48.7241, 53.724
61.5316, 63.8152, 57.4887, 55.1874
46.0748, 41.5697, 52.3238, 48.5394
48.6126, 51.4151, 47.1774, 51.6175
50.5963, 64.3993, 58.4157, 57.5948
52.427, 57.359, 60.5872, 65.754
70.9553, 55.4147, 44.692, 43.7872
56.5752, 51.3686, 52.917, 57.9106
67.5893, 61.4247, 45.7691, 57.5402
53.4669, 57.1956, 58.2268, 59.5438
58.4588, 54.1533, 53.7681, 48.6326
56.9514, 48.5369, 48.8146, 46.9534
49.0414, 50, 50.7578, 54.7825
52.9791, 48.9843, 51.7632, 49.9945
61.0012, 57.5121, 51.2625, 51.4924
54.2348, 51.2818, 59.6505, 50.402
51.1784, 52.2615, 57.8975, 60
53.3885, 53.9333, 52.8039, 54.1922
56.4589, 50.4466, 49.4537, 55.8045
55.1029, 51.1081, 57.9385, 57.3981
48.8091, 40.9754, 50.464, 49.9936
46.5722, 42.4369, 52.3811, 61.2601
60.1651, 46.2664, 45.2368, 48.4097
49, 44.0844, 41.2991, 43.7985
49.8883, 53.3941, 49.1299, 43.5279
42, 47.5346, 52.7621, 48.4862
52.8792, 62.1796, 58.8322, 56.684
52.221, 50, 52.7204, 51.9636
56.4199, 56.2953, 54.3251, 51.9793
49.6555, 60.4064, 53.2765, 44.3266
51.0045, 52.337, 56.3154, 52.3688
57.6036, 49.4504, 51.5696, 52.0527
55.9092, 50.4815, 55.8094, 54.4735
45.7892, 46.9002, 54.8385, 54.7629
51.0617, 53.224, 55, 51.7892
48.7183, 47.3605, 49.5529, 51
54.178, 57.9029, 52.0372, 48.6317
60.3464, 58.1934, 52.3723, 60.1434
70.0008, 74.2476, 78.1124, 85.5904
96.4381, 81.2072, 73.9377, 74.5364
68.0834, 55.1878, 39.8208, 45.602
52.3907, 54.432, 49.9332, 45.3946
45, 49.2191, 48.993, 45.1997
46.3951, 51.5847, 52.2116, 46.8363
51.7155, 52.8547, 48.8183, 51.5373
52.2353, 56.869, 55.7298, 50.8315
58.7441, 60.9286, 52.7773, 48.421
54.9319, 53.0839, 56.0503, 60.8526
53.1315, 49.1421, 52.2789, 53.4316
49.0304, 48.2631, 47.1778, 44.4369
44, 46.8024, 52.3549, 52.7687
48.7739, 50.3311, 41.3688, 46.3661
51.9366, 50.2994, 52.4514, 48.1693
43.9081, 45.723, 53.9761, 54.6644
48.2968, 47.0786, 49.076, 48.9267
51.212, 49.7279, 43.3366, 47.9077
47.1096, 46.2871, 46.2535, 39.3697
45.9205, 47.7191, 42.5221, 40.3962
47.8692, 46.6379, 44.2349, 48.9382
45.9717, 47.0512, 49.5115, 50
51.5265, 47.925, 44.5185, 49.5339
47.9648, 40.489, 45.513, 44.5078
40.9822, 50.9689, 52.5311, 51.4712
48.0851, 43.9663, 44.5292, 45.9336
48.5124, 48.4863, 54.8194, 61.9672
61.5531, 58.5571, 57.9593, 59.4783
54.7531, 46.146, 43.9487, 42.1619
44.1885, 50, 53.2832, 51.3876
42.2018, 39.9301, 38.2177, 40.5487
47.4611, 52.5974, 55.2495, 47.8862
48.0133, 52.1823, 52.7186, 51.4822
47.8018, 51.3474, 51.6566, 51.3394
54.7806, 48.1237, 34.7876, 35.0881
42.0788, 46.4385, 48.3115, 46.0773
44.0417, 54.9312, 56.6581, 47.4305
44.9954, 43.9953, 47.5734, 45.7243
41.4565, 43.0711, 48.3149, 46
46.8372, 48, 45.0883, 43.0732
48.4799, 51.176, 53.2853, 58.4093
58.184, 54.1532, 49.1893, 47.1919
46.4027, 45.3945, 41.7998, 41.1962
41.4104, 37.4157, 36.579, 41.3606
45, 45, 43.8316, 40.0593
40.8681, 42.3742, 39.9941, 45.3201
45.9597, 50.1981, 44, 44.7551
46, 44.8753, 44.1207, 42.2775
37.1128, 40.4784, 50.3656, 57.1287
42.2467, 36.9145, 40.185, 39.8934
42.4776, 36.9229, 37.8616, 42.2872
44.1955, 46.4626, 40, 44.5643
48.1031, 42.4846, 44.1401, 36.7291
36.8995, 33.7454, 37.9744, 39.4053
44.3039, 41.6758, 42.6634, 41.6647
38.9964, 36.6631, 35.3618, 31.6097
45.6293, 50.018, 47.0219, 45.6494
47.9702, 48.0675, 44.9623, 44.4445
40.5906, 45.2672, 44.8451, 37.0575
38.4415, 46, 47.8614, 54.1624
54.0784, 42.6937, 42, 43.5183
45.4883, 40.4949, 38.7983, 42.7016
42.8912, 47.3661, 52.4111, 49.8274
47.2918, 45.9664, 42.7352, 47.8637
49.7134, 47.8589, 44.716, 48.2397
57.8747, 52.4798, 43.7703, 39.387
43, 44.3739, 49.0939, 52
49.0206, 42.6173, 48.073, 51.5339
53, 53.7929, 59.6821, 65.5511
53.5208, 55.7773, 55.9378, 49.2306
47.2552, 48.5077, 50.2526, 53.2613
60, 60.4973, 62, 60.2778
57.9367, 65.5395, 67.7794, 91.8898
104.593, 123.861, 150.895, 172.315
251.757, 390.941, 579.049, 765.737
823.086, 759.992, 670.675, 610.831
515.161, 411.736, 303.098, 206.679
151.408, 107.826, 100.864, 98.6294
75.5836, 62.5755, 60.1563, 56.5807
55.4167, 56.5859, 52.7367, 44.8178
48, 48.2019, 48.7994, 49.7936
54.2281, 41.8198, 40.1265, 52.6118
51.9641, 55.4254, 51.478, 45
44.6247, 43, 42.0746, 37.4486
36.2776, 43.9934, 51.5605, 44.6427
44.951, 52.2393, 42.9513, 37.306
35.5499, 42.1453, 39.6965, 45.1379
32.0025, 38.8237, 46.8484, 40.5103
37.0283, 33.1246, 38.8406, 38.4743
39.9023, 33.0668, 28.9256, 34.9179
40, 40.3008, 41.5526, 39.4436
42.4398, 44.4188, 39.1275, 30.8552
46.3022, 36.701, 40.5832, 38.1377
39.8183, 45, 45.5353, 48.6023
47.1816, 54.87, 53.7425, 52.6374
56.4952, 51.126, 38.371, 40.388
35.6366, 34.0787, 41.0513, 33.8827
32.5358, 30.1479, 39.1135, 38.9897
31.111, 32.8778, 40.3254, 42.1424
35.2119, 37.1047, 38, 37.5914
34.5044, 39.797, 45.3279, 29.4174
25.5335, 39.4325, 32.9734, 24.1048
35.0908, 35.015, 25.8829, 35.087
35.5711, 31.5071, 37.4163, 41.5079
35.2731, 27.9541, 38.7652, 35.846
34.606, 41.851, 39.9268, 38.928
38.849, 48.749, 31.6588, 27.536
35.263, 38.871, 37.3796, 42.814
39.3316, 29.3571, 35.0583, 37.0266
53.219, 40, 39.6802, 34.1041
36.4066, 43.7521, 38.7583, 34.2826
39.9541, 38.5984, 30.6073, 43.4943
32.3273, 40.238, 45.7694, 40
39.8202, 34.6874, 26.3015, 35.0645
36.9379, 34.9702, 33.7715, 26
26.2088, 34, 34.0236, 35.2466
45.7881, 36.0798, 40.2061, 50.7724
38.0326, 40.0452, 42.9723, 41.063
45.8975, 37.0305, 40.0268, 42.9768
40, 39.9947, 39.0446, 49.9915
46.9984, 46.0032, 53.9935, 39.0305
31.026, 35.9777, 36.9943, 31.0414
32.9838, 33, 47.842, 33.1762
33, 44.83, 31.2153, 30.0166
35.8932, 36, 36, 35.0214
32.0679, 34.9285, 37.9249, 43.8426
29.4116, 41.6276, 22.5969, 34.5964
36.9355, 26.368, 39.5149, 40
42.8889, 37.2295, 35.0789, 34.0406
37.8327, 33.2151, 34.9116, 29.2725
32.8136, 29.1912, 35.657, 40.7491
32.4624, 36.7372, 32.2688, 36.7253
39.8316, 37.172, 37, 31.3581
39.4521, 27.8067, 35.4308, 42.549
39.2624, 29.6679, 33.6602, 43.3085
42.1407, 34.572, 34.9273, 32.2216
34.7749, 31.3048, 31.9226, 32
41.2027, 27.2945, 32.4254, 38.5005
32.5909, 32, 33.8265, 34
34.9109, 39.5487, 27.28, 30.537
28.2813, 27.0949, 39.6548, 30.167
32.6064, 23.9957, 31.0934, 40.9811
35.7213, 34.1042, 40.2625, 32.0652
35.4616, 30.653, 31.78, 32.8889
26.786, 29.5462, 34.427, 37.6528
45.948, 46.118, 36.3111, 31.4813
38.0281, 33.7358, 39.1336, 37.3748
33.5042, 37.364, 31.8984, 35.3526
35.1306, 37.6047, 37.1329, 39.5979
36.5407, 50.6826, 49.5498, 54.1685
45.5369, 45.7183, 52.0061, 45.288
48.2788, 44.7269, 39.7325, 34.7382
36.5537, 31.0492, 30.849, 30.1521
30.8467, 35.2281, 34.311, 39.0603
34.1042, 34.6823, 34.16, 34
28.1355, 27.8367, 25.4933, 31.6755
33.8333, 34.8322, 35, 31.6801
35.9733, 32.8612, 27.8667, 30.3022
43.3667, 34.4733, 25.4221, 27.2845
27.18, 34.3703, 42.5426, 34.1994
37.7093, 43.0726, 36.6792, 31.7507
28.5663, 28.8101, 33.0452, 29.1523
29.6137, 31.6115, 36.0234, 24.9463
34.0374, 37, 41.8019, 36.6062
25.4223, 24.5941, 25.796, 27.5898
39.1133, 34.8654, 26.6668, 28.9528
34.7369, 35.2116, 30.276, 26.6412
25.2148, 32.057, 40.2643, 30.2705
30.1236, 34.8991, 46.1239, 37.3346
33.2234, 29.8978, 32.8725, 27.0391
25, 34.2556, 27.7571, 28.0767
38.2175, 35.6306, 28.638, 38.4742
36.6528, 29.6601, 43.2357, 44.9571
37.1629, 39.5518, 37.9697, 40.7826
42.7555, 42.2456, 42, 45.7617
40.2383, 47.7533, 39.0126, 35.7482
33.0115, 38.7148, 37.2747, 28.5598
26.743, 40.355, 36.85, 26.6012
25.4777, 34.8538, 36.5264, 34.5285
32.5305, 29.0652, 31.6634, 25.6835
28.845, 27.352, 31.1001, 37.3654
36.8204, 36, 37.449, 31.4886
34.0573, 31.6713, 27.1182, 31.7554
28.2527, 32.4566, 35.7164, 32.4231
36.715, 38.2866, 38, 36.5773
31.7379, 30, 37.7919, 44.5368
38.9365, 31.0625, 28.2956, 35.737
39, 38.2986, 32.3969, 38.3927
32.2224, 31.487, 30.9107, 30.6954
31.6944, 38.9346, 44.7699, 50.8405
37.8088, 33.7581, 43.2626, 42.187
39.3134, 33.5151, 33.0539, 34.6837
30.9038, 31.0452, 36.0845, 33.9213
23.1755, 24.4227, 27.6769, 29.3518
27.3002, 33.4138, 35.654, 31.6397
30, 29.3299, 32.3459, 31.9953
29.6655, 31.6652, 31.6693, 31.6644
34.6538, 32.6875, 36.2924, 37.0182
41.2773, 38.7303, 34.6845, 37.2841
39, 33.1055, 39.1561, 37.4693
40.5213, 41.3952, 38.6995, 36.052
37.5936, 36.4102, 35.6465, 34.7088
35.934, 39.575, 42.9284, 33.0878
34.0506, 33.5197, 32.9174, 35.2764
29.6271, 29.1818, 33.5418, 36.2691
36.3664, 28.4075, 30.318, 32.1073
32.8899, 32.7419, 30.7437, 30
35.6372, 32.7455, 29.6245, 30
30.6227, 40.3277, 41.6534, 30.3193
30.5724, 36.473, 30.5916, 32.1648
36.6156, 37, 38.8414, 30.8061
27.4482, 27.7777, 26.3897, 29.6563
32.6085, 32.3924, 27.146, 29.4529
27.555, 30.0413, 26.7609, 28.0238
33.8045, 38.0032, 34.602, 32.7967
36.3922, 29.6395, 29.9632, 29.2364
29.5676, 34.9687, 32.8499, 32.3681
38.1382, 36.2775, 38.3051, 43.1772
36.9469, 29.0655, 27, 28.1704
30.1687, 31.5835, 34.9134, 34.0908
32.581, 34.7405, 33.6827, 32.5785
35.3106, 34.6927, 34.152, 39.0261
38.554, 27.3975, 33.0261, 40.2845
37.858, 37.5702, 38.5694, 32.7459
37.6515, 41.5985, 40.1322, 38.1736
34.3066, 36.9456, 39.4372, 37.8759
38.6837, 33.275, 29.6788, 32.6764
31.768, 28.3284, 28.1128, 26.222
24, 30.6481, 38.2129, 32.2661
28.2065, 26.1441, 29.0505, 35.0985
28.3214, 24.1907, 26.5469, 32.4612
34.2733, 32, 33.0876, 35.086
28.4089, 29.0388, 32.2966, 29.4601
30.6174, 33.0767, 34, 31.3159
33.8245, 32.1117, 33.9489, 36.7974
38.2641, 35.0807, 27.937, 24.3463
23.06, 31.4093, 34.3006, 28.3613
30.2159, 31.8951, 32.6275, 35
33.428, 30.4302, 33.7027, 32.2604
30.6473, 32.4391, 32.5587, 30.8869
32.1449, 32.8957, 36.7165, 39.9044
38.5456, 37.9421, 40.6238, 40.8958
30.34, 28.0927, 32.5109, 31.9797
34.0567, 34.4564, 35.0481, 33.9415
26.4538, 25.5295, 32.0415, 32.9731
28.9924, 31.0185, 36.5119, 38.4983
35.9961, 37.502, 38.0024, 34.5011
35.4946, 31.5273, 31.962, 40.4807
42.5045, 41.5052, 37.5414, 37.4539
36.5654, 31.0159, 31.9655, 37.4349
35.1196, 33.8936, 39.9774, 41.976
38.1265, 34.4601, 35.028, 38.3682
43, 43.9681, 41.6163, 38
36.5538, 30.1859, 25.9615, 30.3608
35.4384, 38.4364, 34.262, 32.2977
34.1387, 33.8574, 38.4268, 44.2746
40.9365, 30.1053, 32.7305, 36.5827
33.5846, 32, 32, 33.8796
37.8771, 38.1254, 37.8721, 35.3259
28.5996, 31.1956, 35.0689, 38.6495
44, 38.4353, 31.5369, 28.2249
34.7, 42.7709, 38.0786, 46.2019
52.8646, 43.411, 34.7919, 30.5423
30.9142, 38.3913, 41.8966, 42.0087
42.0882, 37.725, 38.7321, 36.906
42.0718, 38.415, 30.2563, 34.8027
40.1508, 41.3028, 33.9593, 33.9324
37.7608, 32.3164, 26.3198, 27.4614
32.5544, 32.445, 37.4446, 37.6732
34.9901, 41.7712, 44.4422, 44.1166
42.1177, 42.7624, 42.3597, 41.637
43.6831, 41.5616, 39.2485, 34.8133
35.4944, 36.5099, 33.3072, 33.2592
36.216, 42.1317, 41.8672, 43.4331
40.107, 37.5922, 38.4109, 36.7239
43.3047, 47.7102, 40.4174, 33.4289
35.2852, 37, 38.2821, 36.1582
35.69, 39.8707, 35.7239, 38.2485
42.3026, 35.3377, 31.9634, 33.0401
30.6894, 33.8437, 37.1068, 40.8417
42.8408, 46.0994, 45.6448, 41.4189
42, 43.6717, 43.9127, 43.9188
41.7526, 33.832, 37.4932, 36.4344
32.9021, 38.2423, 40.8273, 42
39.1112, 41.5955, 47.706, 43.8226
41.7134, 37.8207, 36.9505, 32.7717
33.8628, 40.4511, 42.7758, 38.1468
37.2571, 38.7465, 28.7189, 24.652
31.6213, 36.0244, 42.2355, 44.5761
38.5788, 39.4341, 43.1814, 36.9889
34.8035, 36.8027, 37.1982, 42.4072
46.7998, 39.3996, 42.794, 40.2219
29.6017, 33.3763, 41.1923, 43
41.0172, 42.7536, 46.8343, 37.6518
33.764, 43.9166, 50.2419, 42.4576
40.5386, 44.4289, 40.823, 35.0807
31.3491, 34.2178, 37.2976, 42.0486
36.2709, 29.2738, 29.6686, 36.6114
37.1647, 37.8365, 37.1623, 40.1611
42.7732, 44.7724, 47.1575, 45.9166
41.385, 38.1538, 35.0738, 38.4647
36, 39.8304, 49.0612, 50.5597
36.5989, 26.4333, 36.5731, 42.4772
38.8591, 41.9391, 44.6864, 36.7583
36.4849, 35.1352, 37, 38.5105
39.491, 37, 37.753, 42.0089
42.8669, 36, 35.625, 35.7492
36.2515, 35.3739, 38.6145, 40.3881
36.3728, 38.8619, 42, 44.6016
43.4307, 38.822, 45.1472, 40.8894
39, 39.3695, 38.8927, 35.8938
34.7368, 40.0483, 45.5293, 43.7346
46.1009, 43.9674, 39.1974, 43.7318
41.3447, 37.5562, 39.4462, 39.0092
45.2718, 42.9087, 43.1805, 48.0892
46.3727, 39.6376, 36.1038, 33.8935
36.4706, 30.917, 28.6394, 28
34.1194, 43.5615, 42.4371, 42.4874
36.9242, 38.9408, 46.3579, 48.7879
46.2841, 37.4276, 37.504, 34.7812
40.4913, 44.2889, 43.7105, 40.0315
33.8365, 39, 41.1234, 44.2929
42.2935, 40.2942, 41.468, 44.2388
38.5366, 36.4611, 45.9177, 45.8757
30.753, 34.3503, 36.3998, 40.0489
40.2535, 36.651, 34.6054, 34.7867
38.6079, 39.477, 42.8736, 35.6118
34.7337, 40.4249, 45.3461, 42.1965
37.0727, 36.8583, 31.7586, 36.6555
38.0651, 41.6561, 38.9387, 36.0297
38.3429, 36.2591, 33.0538, 38.0259
39.3167, 38, 38.341, 36.9556
34.0213, 34.9797, 36.7377, 39.2472
31.0175, 32.6611, 35.3855, 40.9853
39.6759, 38.299, 33, 33.337
34.3367, 35, 36.3444, 39.3358
38.6581, 35.6648, 37.6789, 38.6507
30.3343, 33.0037, 37.3336, 37.3333
38.3312, 43, 42.0027, 36.6788
30.6636, 32.9946, 33.3439, 32.9782
36.0245, 30.6606, 35.9601, 42.3515
39.6588, 40.3418, 37.356, 34
38.5948, 46.6884, 43.0172, 39.3635
36.981, 36.7131, 30.0416, 32.1959
41.0904, 33, 31.6992, 30.6245
35.2984, 38.9729, 38.4079, 34.2948
37.3234, 35.092, 33.8423, 42.0649
37.6778, 38.2877, 40.0351, 37.6787
36.3579, 36.2829, 39, 38.3597
38.2794, 37.8045, 30.6808, 28.7242
27.5933, 30.3633, 30.9084, 32.4579
30.1747, 33.8283, 28.2675, 32.8995
34.786, 29.684, 28.3686, 27.6308
31.8358, 42.4072, 47.2825, 37.6284
39, 36.4911, 34.1331, 38.8089
32.4364, 29.6248, 31.3121, 32.6237
34.9346, 36.6888, 34.7563, 31.3787
30.6207, 32.6201, 38.3364, 45.5244
37.5268, 31.3823, 31.8513, 31.3762
24.6955, 33.3077, 34.9221, 39.1494
44, 41.2418, 35.6123, 37
34.8611, 29.6947, 26.5603, 25.5699
36.9131, 39.3041, 40.3038, 38.2689
34.4253, 37.88, 35.723, 37.7684
29.2078, 30.7934, 28, 30.7094
39.4059, 39.8925, 31.0014, 38.2998
35.4057, 27.2992, 24.114, 16.4931
24.1763, 29.8279, 22.0839, 29.6765
36.2971, 34.329, 28.5929, 30.5923
32, 32, 30.819, 29.7696
34.2946, 35.2943, 35.118, 30.9441
27.4669, 28.9485, 25.4638, 28.4151
28.1686, 31.5837, 35.0406, 37.0879
29.1273, 25.5471, 25.4832, 31.1005
26.0275, 30.4214, 31.0231, 33.6905
30.5954, 33.8313, 24.849, 24.8743
31.1387, 27.2793, 23.2865, 25.4308
27.8567, 24.429, 24.4259, 28
28, 28.2842, 29.5678, 29.2985
26.6995, 29.8683, 27.5652, 27.5886
23.4361, 23.4082, 27.5626, 27.3141
26.3678, 32.7574, 28.4, 31.161
28.162, 26, 26.5574, 28
28.556, 28.0561, 25.4963, 29.2297
22.5534, 23.1709, 22.6562, 27.2757
29.6522, 32.6248, 30.9229, 34.9025
31.726, 31, 29.6332, 25.727
26.6361, 28.5488, 23.3601, 25.3699
20.7287, 20.542, 22.5413, 24.2703
24.73, 25.3483, 29.2693, 28.9241
26.8059, 28.1951, 27.8757, 31.662
26.6637, 23.2669, 24.5332, 26.7987
29.2659, 31.0622, 34, 34.2649
35.2645, 34.9433, 30.1531, 24.7365
25.842, 32.5768, 34.3754, 26.4758
26.0471, 28.2157, 25.7389, 27.0858
34.0415, 34.9197, 29, 29.2593
30.518, 30.7068, 27.7749, 29.7421
29.2576, 28.4565, 22.9724, 22.0524
27.4876, 25.4883, 24.511, 27.5309
30.4712, 28.7989, 33.9509, 24.4925
21.4797, 17, 20.0322, 28.4953
28.2599, 29.7354, 21.9949, 21.2583
27.4989, 27.2511, 28.0017, 19.499
22.4949, 25.5072, 22.7391, 27.2557
26.2387, 29.2579, 27.7411, 29.26
27, 26.0162, 24.9648, 28.3023
20, 21.2227, 25.9767, 26.318
19.9477, 25.0276, 23.2137, 26.2728
23.5159, 23.9334, 29.0347, 26
24.5564, 22.6427, 32.9191, 35.6466
25.9567, 26.1342, 17, 20.0953
30, 29.7626, 28.763, 28.9467
30.1096, 24.7078, 27.4712, 27.5886
23.2349, 23.531, 22, 21.7662
19.5994, 17.5638, 27.3963, 30.8382
27.464, 29.4633, 29.3811, 23.0763
21.8444, 29.3812, 32.8508, 28.0821
23.8544, 22.7451, 31.5432, 28.6318
24, 24.6819, 26.0922, 23.6798
26.2262, 26.3224, 23.0979, 21.5761
25.2017, 19.4489, 21.8963, 25.2237
26.6701, 29, 27.8868, 23.5555
22.2219, 23.6647, 26.4424, 27.3375
23.4567, 20.2011, 26.9012, 23.2194
23.5619, 22.4373, 25.7465, 31.1282
26.4769, 20.1311, 18.735, 25
26.2969, 29.4894, 25.2926, 28.9246
25.4294, 26.5713, 25.214, 26
25.3602, 24.2775, 27.7246, 22.3634
19.3645, 17, 18.0556, 24.1077
30.948, 26.7899, 26.4194, 28.2093
28.582, 28.0431, 32.6248, 32.2972
24.0755, 31.1712, 25.9317, 18
17.3816, 17.0576, 25.8216, 29.205
30.6141, 32.5913, 30.3881, 27.5928
24.5771, 19.8117, 23, 22.1912
18.1926, 15.403, 17.2011, 17.1969
15.6034, 22.8003, 26.1997, 24.6076
17.3881, 27.1987, 28, 26.8123
22, 22.789, 25.8031, 24.6069
23, 23.1958, 23.4135, 21
20.0261, 16.9722, 21, 20.4188
19.3536, 25.9651, 28.6513, 22.8077
22.7679, 25.6167, 23.4262, 21.1909
22.5717, 24.6195, 23.3798, 25.1895
25.6216, 23.8112, 22.4345, 20.3763
22.1878, 24.3122, 28.316, 21.3735
23.3728, 25.9304, 28.3285, 20.8146
20.7402, 24.3694, 25.8156, 24.816
23.8163, 24.8332, 31.1702, 23
22.0885, 18.7278, 21.4552, 19.9063
23.8191, 23.9029, 26.7383, 22.6192
29.6409, 28.3585, 29.6422, 27.6429
25.4654, 23.3558, 25.5326, 27.2912
24.8843, 27.5878, 21.3524, 22.4724
21.7552, 28.7737, 23.1749, 24.8726
28.6516, 26.1308, 22, 23.0391
26.7901, 22.5527, 29.1391, 25
23.9709, 19, 19.6835, 21.8063
17.1914, 23.3397, 23.6436, 18.8614
27.3244, 24, 23.6635, 20.4888
13.8379, 19.1708, 25.3339, 28.6661
35.836, 28.8383, 23.8282, 27.0081
21.835, 20.1767, 17.1504, 23.328
26.3096, 31.6929, 24.5108, 21.5118
19.9745, 24.6758, 22.3529, 19.6459
22.1942, 17.6783, 16.321, 18.1602
18.5203, 15.8404, 15.7963, 19.2053
14.8414, 14.9499, 18.736, 12.9462
18.6295, 23.7278, 31.9027, 25.3742
21.8439, 20.2208, 16.3111, 18.6209
22.1549, 23.773, 27.3828, 22.7681
17.5369, 25.3865, 21.6938, 21.0694
26.0852, 21, 22.0631, 27.3937
25.8152, 35.5471, 31.7947, 24.0978
19.1501, 20.2995, 22, 22
21.2556, 17.4457, 20.4449, 23.888
27.523, 19.5896, 22.7058, 21
21.5861, 23.8301, 18.1676, 23.6891
17.8898, 28.4197, 24.1313, 19.7225
24, 24.1439, 24.5691, 21.7133
20, 20.5712, 24, 23.5733
21, 21.5666, 24.0103, 18.5644
22, 23.1243, 28.7376, 21.42
24, 23.1634, 18.1392, 18.5833
16.1386, 17.1383, 19.3807, 27.311
22.4499, 19.9608, 25.726, 23.1797
18
*END

*EOF
